m (mol/kg),gamma,Osmotic NH42HPO4,a_water,Beta(0) ,Beta(1),Beta(2),C(MX)
0.001,0.8823,0.9588,0.999948,,,,
0.002,0.8394,0.9428,0.999898,,,,
0.003,0.8085,0.9309,0.999849,,,,
0.004,0.7838,0.9211,0.999801,,,,
0.005,0.7629,0.9126,0.999753,,,,
0.006,0.7447,0.9051,0.999707,,,,
0.007,0.7285,0.8983,0.999660,,,,
0.008,0.7139,0.8920,0.999614,,,,
0.009,0.7006,0.8863,0.999569,,,,
0.010,0.6884,0.8809,0.999524,,,,
0.020,0.6002,0.8400,0.999092,,,,
0.030,0.5435,0.8114,0.998685,,,,
0.040,0.5018,0.7889,0.998296,,,,
0.050,0.4689,0.7704,0.997920,,,,
0.060,0.4420,0.7545,0.997556,,,,
0.070,0.4192,0.7405,0.997202,,,,
0.080,0.3996,0.7281,0.996857,,,,
0.090,0.3825,0.7169,0.996519,,,,
0.100,0.3673,0.7068,0.996187,,,,
0.200,0.2729,0.6370,0.993138,,,,
0.300,0.2241,0.5954,0.990393,,,,
0.400,0.1929,0.5664,0.987831,,,,
0.500,0.1709,0.5445,0.985394,,,,
0.600,0.1544,0.5272,0.983050,,,,
0.700,0.1413,0.5130,0.980779,,,,
0.800,0.1308,0.5011,0.978567,,,,
0.900,0.1220,0.4909,0.976405,,,,
1.000,0.1145,0.4820,0.974287,,,,
1.250,0.1000,0.4639,0.969148,,,,
1.500,0.0893,0.4497,0.964198,,,,
1.750,0.0810,0.4381,0.959408,,,,
2.000,0.0744,0.4283,0.954763,,,,
2.250,0.0689,0.4196,0.950252,,,,
2.500,0.0643,0.4119,0.945871,,,,
2.750,0.0603,0.4048,0.941614,,,,
3.000,0.0569,0.3982,0.937481,,,,
3.107,0.0555,0.3955,0.935749,,,,
,,,,,,,
m (mol/kg),gamma,Osmotic Guanidinium carbonate,a_water,,,,
0.001,0.8837,0.9596,0.999948,,,,
0.002,0.8420,0.9443,0.999898,,,,
0.003,0.8122,0.9331,0.999849,,,,
0.004,0.7885,0.9240,0.999800,,,,
0.005,0.7685,0.9162,0.999752,,,,
0.006,0.7512,0.9093,0.999705,,,,
0.007,0.7359,0.9031,0.999658,,,,
0.008,0.7221,0.8975,0.999612,,,,
0.009,0.7095,0.8923,0.999566,,,,
0.010,0.6980,0.8875,0.999520,,,,
0.020,0.6156,0.8518,0.999080,,,,
0.030,0.5631,0.8276,0.998659,,,,
0.040,0.5246,0.8090,0.998253,,,,
0.050,0.4942,0.7937,0.997857,,,,
0.060,0.4693,0.7807,0.997471,,,,
0.070,0.4482,0.7694,0.997093,,,,
0.080,0.4299,0.7593,0.996723,,,,
0.090,0.4139,0.7501,0.996358,,,,
0.100,0.3996,0.7417,0.995999,,,,
0.200,0.3081,0.6812,0.992664,,,,
0.300,0.2577,0.6398,0.989679,,,,
0.400,0.2238,0.6071,0.986960,,,,
0.500,0.1989,0.5799,0.984452,,,,
0.600,0.1796,0.5567,0.982111,,,,
0.700,0.1642,0.5367,0.979899,,,,
0.800,0.1515,0.5195,0.977787,,,,
0.900,0.1410,0.5047,0.975748,,,,
1.000,0.1320,0.4919,0.973764,,,,
1.250,0.1146,0.4670,0.968943,,,,
1.500,0.1020,0.4494,0.964222,,,,
1.750,0.0924,0.4365,0.959556,,,,
2.000,0.0848,0.4264,0.954953,,,,
2.250,0.0786,0.4182,0.950420,,,,
2.500,0.0734,0.4114,0.945925,,,,
2.613,0.0713,0.4090,0.943878,,,,
,,,,,,,
m (mol/kg),gamma,"Osmotic 1,2-Ethanedisulfonic Acid",a_water,,,,
0.001,0.8896,0.9629,0.999948,,,,
0.002,0.8528,0.9505,0.999897,,,,
0.003,0.8273,0.9419,0.999847,,,,
0.004,0.8075,0.9353,0.999798,,,,
0.005,0.7911,0.9299,0.999749,,,,
0.006,0.7772,0.9254,0.999700,,,,
0.007,0.7651,0.9214,0.999651,,,,
0.008,0.7543,0.9180,0.999603,,,,
0.009,0.7447,0.9149,0.999555,,,,
0.010,0.7359,0.9122,0.999507,,,,
0.020,0.6761,0.8946,0.999034,,,,
0.030,0.6409,0.8857,0.998565,,,,
0.040,0.6167,0.8808,0.998098,,,,
0.050,0.5986,0.8780,0.997630,,,,
0.060,0.5846,0.8767,0.997161,,,,
0.070,0.5733,0.8763,0.996690,,,,
0.080,0.5641,0.8766,0.996217,,,,
0.090,0.5565,0.8774,0.995741,,,,
0.100,0.5501,0.8787,0.995262,,,,
0.200,0.5210,0.9021,0.990297,,,,
0.300,0.5195,0.9333,0.984982,,,,
0.400,0.5296,0.9671,0.979310,,,,
0.500,0.5466,1.0022,0.973280,,,,
0.600,0.5686,1.0382,0.966895,,,,
0.700,0.5949,1.0746,0.960160,,,,
0.800,0.6248,1.1114,0.953081,,,,
0.900,0.6584,1.1485,0.945667,,,,
1.000,0.6955,1.1857,0.937926,,,,
1.250,0.8038,1.2790,0.917218,,,,
1.500,0.9358,1.3720,0.894737,,,,
1.750,1.0938,1.4637,0.870715,,,,
2.000,1.2806,1.5536,0.845413,,,,
2.250,1.4993,1.6410,0.819099,,,,
2.500,1.7532,1.7255,0.792045,,,,
2.750,2.0455,1.8067,0.764510,,,,
3.000,2.3795,1.8844,0.736733,,,,
3.250,2.7585,1.9585,0.708927,,,,
3.500,3.1861,2.0289,0.681273,,,,
3.750,3.6657,2.0959,0.653918,,,,
4.000,4.2016,2.1595,0.626970,,,,
4.250,4.7987,2.2203,0.600502,,,,
4.500,5.4634,2.2786,0.574548,,,,
4.750,6.2040,2.3351,0.549110,,,,
5.000,7.0317,2.3904,0.524159,,,,
5.250,7.9617,2.4455,0.499634,,,,
5.500,9.0150,2.5012,0.475454,,,,
,,,,,,,
m (mol/kg),gamma,Osmotic m-Benzene Disulfonic Acid, a_water,,,,
0.001,0.8897,0.9629,0.999948,,,,
0.002,0.8530,0.9506,0.999897,,,,
0.003,0.8276,0.9421,0.999847,,,,
0.004,0.8078,0.9356,0.999798,,,,
0.005,0.7916,0.9302,0.999749,,,,
0.006,0.7778,0.9257,0.999700,,,,
0.007,0.7657,0.9219,0.999651,,,,
0.008,0.7550,0.9185,0.999603,,,,
0.009,0.7454,0.9155,0.999555,,,,
0.010,0.7367,0.9128,0.999507,,,,
0.020,0.6777,0.8957,0.999032,,,,
0.030,0.6432,0.8874,0.998662,,,,
0.040,0.6195,0.8830,0.998093,,,,
0.050,0.6020,0.8807,0.997623,,,,
0.060,0.5885,0.8798,0.997151,,,,
0.070,0.5777,0.8799,0.996677,,,,
0.080,0.5689,0.8805,0.996200,,,,
0.090,0.5616,0.8817,0.995720,,,,
0.100,0.5556,0.8832,0.995238,,,,
0.200,0.5287,0.9078,0.990236,,,,
0.300,0.5275,0.9372,0.984918,,,,
0.400,0.5361,0.9673,0.979305,,,,
0.500,0.5502,0.9973,0.973409,,,,
0.600,0.5682,1.0274,0.967234,,,,
0.700,0.5894,1.0577,0.960776,,,,
0.800,0.6138,1.0885,0.954028,,,,
0.900,0.6413,1.1200,0.946978,,,,
1.000,0.6720,1.1525,0.939614,,,,
1.250,0.7640,1.2378,0.919779,,,,
1.500,0.8800,1.3278,0.897947,,,,
1.750,1.0200,1.4181,0.874485,,,,
1.800,1.0504,1.4355,0.869663,,,,
,,,,,,,
Ammonium Decahydroborate,,,,,,,
m (mol/kg),gamma,Osmotic ,a_water,,,,
0.001,0.8867,0.9613,0.999948,,,,
0.002,0.8475,0.9475,0.999898,,,,
0.003,0.8199,0.9376,0.999848,,,,
0.004,0.7982,0.9298,0.999799,,,,
0.005,0.7801,0.9233,0.999751,,,,
0.006,0.7645,0.9176,0.999702,,,,
0.007,0.7508,0.9126,0.999655,,,,
0.008,0.7386,0.9082,0.999607,,,,
0.009,0.7275,0.9041,0.999560,,,,
0.010,0.7174,0.9004,0.999514,,,,
0.020,0.6465,0.8743,0.999055,,,,
0.030,0.6026,0.8582,0.998609,,,,
0.040,0.5711,0.8469,0.998171,,,,
0.050,0.5466,0.8383,0.997737,,,,
0.060,0.5268,0.8315,0.997307,,,,
0.070,0.5103,0.8260,0.996880,,,,
0.080,0.4961,0.8214,0.996455,,,,
0.090,0.4838,0.8175,0.996031,,,,
0.100,0.4730,0.8142,0.995609,,,,
0.200,0.4063,0.7975,0.991417,,,,
0.300,0.3720,0.7926,0.987231,,,,
0.400,0.3501,0.7917,0.983029,,,,
0.500,0.3346,0.7927,0.978807,,,,
0.600,0.3228,0.7945,0.974566,,,,
0.700,0.3135,0.7967,0.970309,,,,
0.800,0.3059,0.7991,0.966038,,,,
0.900,0.2995,0.8017,0.961757,,,,
1.000,0.2941,0.8042,0.957467,,,,
1.250,0.2834,0.8103,0.946730,,,,
1.500,0.2755,0.8158,0.936001,,,,
1.750,0.2691,0.8207,0.925318,,,,
2.000,0.2639,0.8247,0.914709,,,,
2.250,0.2595,0.8281,0.904203,,,,
2.500,0.2555,0.8307,0.893825,,,,
2.750,0.2519,0.8327,0.883595,,,,
3.000,0.2486,0.8339,0.873535,,,,
3.250,0.2455,0.8345,0.863664,,,,
3.500,0.2424,0.8343,0.853998,,,,
3.750,0.2395,0.8336,0.844554,,,,
3.806,0.2389,0.8333,0.842470,,,,
,,,,,,,
Li2SO4,,,,,,,
m (mol/kg),gamma,Osmotic,a_water,0.1408,1.184,0,-0.0051
0.001,0.8866,0.9612,0.999948,0.1408,1.184,0,-0.0051
0.002,0.8473,0.9473,0.999898,0.1408,1.184,0,-0.0051
0.003,0.8196,0.9374,0.999840,0.1408,1.184,0,-0.0051
0.004,0.7978,0.9296,0.999799,0.1408,1.184,0,-0.0051
0.005,0.7796,0.9230,0.999751,0.1408,1.184,0,-0.0051
0.006,0.7639,0.9172,0.999703,0.1408,1.184,0,-0.0051
0.007,0.7502,0.9122,0.999655,0.1408,1.184,0,-0.0051
0.008,0.7378,0.9077,0.999608,0.1408,1.184,0,-0.0051
0.009,0.7267,0.9035,0.999561,0.1408,1.184,0,-0.0051
0.010,0.7165,0.8998,0.999514,0.1408,1.184,0,-0.0051
0.020,0.6450,0.8731,0.999057,0.1408,1.184,0,-0.0051
0.030,0.6006,0.8566,0.998612,0.1408,1.184,0,-0.0051
0.040,0.5686,0.8449,0.998175,0.1408,1.184,0,-0.0051
0.050,0.5438,0.8358,0.997744,0.1408,1.184,0,-0.0051
0.060,0.5236,0.8287,0.997316,0.1408,1.184,0,-0.0051
0.070,0.5067,0.8228,0.996892,0.1408,1.184,0,-0.0051
0.080,0.4923,0.8178,0.996470,0.1408,1.184,0,-0.0051
0.090,0.4797,0.8136,0.996050,0.1408,1.184,0,-0.0051
0.100,0.4686,0.8100,0.995632,0.1408,1.184,0,-0.0051
0.200,0.3998,0.7903,0.991494,0.1408,1.184,0,-0.0051
0.300,0.3641,0.7832,0.987381,0.1408,1.184,0,-0.0051
0.400,0.3411,0.7809,0.983261,0.1408,1.184,0,-0.0051
0.500,0.3248,0.7809,0.979120,0.1408,1.184,0,-0.0051
0.600,0.3126,0.7823,0.974951,0.1408,1.184,0,-0.0051
0.700,0.3031,0.7848,0.970747,0.1408,1.184,0,-0.0051
0.800,0.2955,0.7880,0.966502,0.1408,1.184,0,-0.0051
0.900,0.2894,0.7919,0.962212,0.1408,1.184,0,-0.0051
1.000,0.2845,0.7964,0.957870,0.1408,1.184,0,-0.0051
1.250,0.2759,0.8099,0.946757,0.1408,1.184,0,-0.0051
1.500,0.2713,0.8262,0.935211,0.1408,1.184,0,-0.0051
1.750,0.2696,0.8454,0.923151,0.1408,1.184,0,-0.0051
2.000,0.2703,0.8674,0.910502,0.1408,1.184,0,-0.0051
2.250,0.2732,0.8921,0.897191,0.1408,1.184,0,-0.0051
2.500,0.2780,0.9196,0.883154,0.1408,1.184,0,-0.0051
2.750,0.2848,0.9499,0.868332,0.1408,1.184,0,-0.0051
3.000,0.2935,0.9830,0.852672,0.1408,1.184,0,-0.0051
3.140,0.2993,1.0027,0.843520,0.1408,1.184,0,-0.0051
3.165,0.3003,1.0064,0.841857,0.1408,1.184,0,-0.0051
,,,,,,,
Lithium Dibenzene Sulfonate,,,,,,,
m (mol/kg),gamma,Osmotic,a_water,,,,
0.001,0.8896,0.9629,0.999948,,,,
0.002,0.8528,0.9505,0.999897,,,,
0.003,0.8274,0.9420,0.999847,,,,
0.004,0.8076,0.9354,0.999798,,,,
0.005,0.7913,0.9300,0.999749,,,,
0.006,0.7774,0.9254,0.999700,,,,
0.007,0.7652,0.9215,0.999651,,,,
0.008,0.7545,0.9181,0.999603,,,,
0.009,0.7448,0.9150,0.999555,,,,
0.010,0.7360,0.9122,0.999507,,,,
0.020,0.6763,0.8946,0.999033,,,,
0.030,0.6410,0.8857,0.998565,,,,
0.040,0.6167,0.8806,0.998098,,,,
0.050,0.5985,0.8777,0.997631,,,,
0.060,0.5843,0.8762,0.997163,,,,
0.070,0.5729,0.8756,0.996693,,,,
0.080,0.5635,0.8757,0.996221,,,,
0.090,0.5557,0.8763,0.995747,,,,
0.100,0.5491,0.8773,0.995270,,,,
0.200,0.5175,0.8976,0.990344,,,,
0.300,0.5126,0.9246,0.985121,,,,
0.400,0.5182,0.9532,0.979604,,,,
0.500,0.5295,0.9822,0.973806,,,,
0.600,0.5448,1.0113,0.967738,,,,
0.700,0.5630,1.0402,0.961411,,,,
0.800,0.5835,1.0689,0.954838,,,,
0.900,0.6062,1.0972,0.948028,,,,
1.000,0.6308,1.1253,0.940993,,,,
1.250,0.7002,1.1943,0.922485,,,,
1.500,0.7805,1.2615,0.902789,,,,
1.750,0.8719,1.3269,0.882053,,,,
2.000,0.9749,1.3908,0.860423,,,,
2.250,1.0903,1.4530,0.838038,,,,
2.500,1.2191,1.5137,0.815032,,,,
,,,,,,,
"Lithium 4,4'-Bibenzyl Disulfonate",,,,,,,
m (mol/kg),gamma,Osmotic,a_water,,,,
0.001,0.8851,0.9604,0.999948,,,,
0.002,0.8447,0.9459,0.999898,,,,
0.003,0.8162,0.9356,0.999848,,,,
0.004,0.7936,0.9273,0.999800,,,,
0.005,0.7748,0.9203,0.999751,,,,
0.006,0.7587,0.9143,0.999704,,,,
0.007,0.7445,0.9090,0.999656,,,,
0.008,0.7318,0.9042,0.999609,,,,
0.009,0.7203,0.8999,0.999562,,,,
0.010,0.7098,0.8960,0.999516,,,,
0.020,0.6370,0.8691,0.999061,,,,
0.030,0.5928,0.8536,0.998617,,,,
0.040,0.5618,0.8434,0.998178,,,,
0.050,0.5382,0.8363,0.997743,,,,
0.060,0.5194,0.8311,0.997309,,,,
0.070,0.5040,0.8272,0.996875,,,,
0.080,0.4909,0.8242,0.996443,,,,
0.090,0.4796,0.8219,0.996010,,,,
0.100,0.4698,0.8200,0.995578,,,,
0.200,0.4083,0.8085,0.991299,,,,
0.300,0.3729,0.7975,0.987153,,,,
0.400,0.3480,0.7880,0.983108,,,,
0.500,0.3306,0.7843,0.979028,,,,
0.600,0.3190,0.7880,0.974771,,,,
0.700,0.3122,0.7982,0.970254,,,,
0.800,0.3085,0.8125,0.965480,,,,
0.900,0.3068,0.8280,0.960624,,,,
1.000,0.3060,0.8429,0.955465,,,,
1.200,0.3086,0.8772,0.944696,,,,
,,,,,,,
Sodium Sulfite,,,,,,,
m (mol/kg),gamma,Osmotic,a_water,,,,
0.001,0.8866,0.9612,0.999948,,,,
0.002,0.8472,0.9473,0.999898,,,,
0.003,0.8195,0.9374,0.999848,,,,
0.004,0.7976,0.9295,0.999799,,,,
0.005,0.7794,0.9228,0.999751,,,,
0.006,0.7637,0.9170,0.999703,,,,
0.007,0.7498,0.9119,0.999655,,,,
0.008,0.7374,0.9073,0.999608,,,,
0.009,0.7262,0.9032,0.999561,,,,
0.010,0.7160,0.8993,0.999514,,,,
0.020,0.6437,0.8720,0.999058,,,,
0.030,0.5986,0.8548,0.998615,,,,
0.040,0.5659,0.8421,0.998181,,,,
0.050,0.5403,0.8322,0.997754,,,,
0.060,0.5195,0.8241,0.997331,,,,
0.070,0.5019,0.8173,0.996913,,,,
0.080,0.4867,0.8114,0.996498,,,,
0.090,0.4734,0.8062,0.996086,,,,
0.100,0.4616,0.8016,0.995677,,,,
0.200,0.3865,0.7719,0.991692,,,,
0.300,0.3451,0.7547,0.987839,,,,
0.400,0.3171,0.7423,0.984080,,,,
0.500,0.2962,0.7326,0.980397,,,,
0.600,0.2796,0.7247,0.976772,,,,
0.700,0.2662,0.7182,0.973193,,,,
0.800,0.2549,0.7129,0.969647,,,,
0.900,0.2453,0.7086,0.966121,,,,
1.000,0.2370,0.7052,0.962603,,,,
1.250,0.2208,0.7008,0.953756,,,,
1.500,0.2093,0.7019,0.944685,,,,
1.750,0.2013,0.7084,0.935198,,,,
2.000,0.1960,0.7201,0.925114,,,,
2.058,0.1952,0.7236,0.922670,,,,
,,,,,,,
Sodium Sulfate (Na2SO4),,,,,,,
m (mol/kg),gamma,Osmotic,a_water,0.01959,1.049,0,0.005416
0.001,0.8859,0.9608,0.999948,0.01959,1.049,0,0.005416
0.002,0.8460,0.9466,0.999898,0.01959,1.049,0,0.005416
0.003,0.8178,0.9364,0.999848,0.01959,1.049,0,0.005416
0.004,0.7955,0.9282,0.999799,0.01959,1.049,0,0.005416
0.005,0.7768,0.9212,0.999751,0.01959,1.049,0,0.005416
0.006,0.7607,0.9152,0.999703,0.01959,1.049,0,0.005416
0.007,0.7465,0.9099,0.999656,0.01959,1.049,0,0.005416
0.008,0.7328,0.9050,0.999609,0.01959,1.049,0,0.005416
0.009,0.7223,0.9006,0.999562,0.01959,1.049,0,0.005416
0.010,0.7117,0.8965,0.999516,0.01959,1.049,0,0.005416
0.020,0.6369,0.8672,0.999063,0.01959,1.049,0,0.005416
0.030,0.5900,0.8482,0.998626,0.01959,1.049,0,0.005416
0.040,0.5557,0.8341,0.998198,0.01959,1.049,0,0.005416
0.050,0.5289,0.8229,0.997779,0.01959,1.049,0,0.005416
0.060,0.5069,0.8136,0.997365,0.01959,1.049,0,0.005416
0.070,0.4883,0.8056,0.996957,0.01959,1.049,0,0.005416
0.080,0.4723,0.7986,0.996553,0.01959,1.049,0,0.005416
0.090,0.4582,0.7924,0.996156,0.01959,1.049,0,0.005416
0.100,0.4457,0.7869,0.995756,0.01959,1.049,0,0.005416
0.200,0.3656,0.7494,0.991932,0.01959,1.049,0,0.005416
0.300,0.3212,0.7262,0.988294,0.01959,1.049,0,0.005416
0.400,0.2910,0.7088,0.984794,0.01959,1.049,0,0.005416
0.500,0.2684,0.6945,0.981407,0.01959,1.049,0,0.005416
0.600,0.2506,0.6824,0.978113,0.01959,1.049,0,0.005416
0.700,0.2359,0.6720,0.974897,0.01959,1.049,0,0.005416
0.800,0.2236,0.6629,0.971745,0.01959,1.049,0,0.005416
0.900,0.2131,0.6550,0.968643,0.01959,1.049,0,0.005416
1.000,0.2040,0.6481,0.965579,0.01959,1.049,0,0.005416
1.250,0.1859,0.6351,0.958004,0.01959,1.049,0,0.005416
1.500,0.1725,0.6273,0.950465,0.01959,1.049,0,0.005416
1.750,0.1623,0.6243,0.942659,0.01959,1.049,0,0.005416
1.957,0.1558,0.6252,0.936013,0.01959,1.049,0,0.005416
2.000,0.1546,0.6257,0.934600,0.01959,1.049,0,0.005416
2.250,0.1488,0.6311,0.926127,0.01959,1.049,0,0.005416
2.500,0.1444,0.6401,0.917144,0.01959,1.049,0,0.005416
2.750,0.1414,0.6525,0.907581,0.01959,1.049,0,0.005416
3.000,0.1394,0.6666,0.897385,0.01959,1.049,0,0.005416
3.250,0.1382,0.6857,0.886523,0.01959,1.049,0,0.005416
3.500,0.1380,0.7060,0.874984,0.01959,1.049,0,0.005416
3.750,0.1383,0.7283,0.862774,0.01959,1.049,0,0.005416
4.000,0.1393,0.7522,0.849919,0.01959,1.049,0,0.005416
4.250,0.1409,0.7774,0.836460,0.01959,1.049,0,0.005416
4.445,0.1424,0.7978,0.825580,0.01959,1.049,0,0.005416
,,,,,,,
Sodium Thiosulfate,,,,,,,
m (mol/kg),gamma,Osmotic,a_water,0.06306,1.254,0,0.004673
0.001,0.8867,0.9613,0.999948,0.06306,1.254,0,0.004673
0.002,0.8475,0.9475,0.999898,0.06306,1.254,0,0.004673
0.003,0.8199,0.9376,0.999848,0.06306,1.254,0,0.004673
0.004,0.7981,0.9297,0.999799,0.06306,1.254,0,0.004673
0.005,0.7800,0.9231,0.999751,0.06306,1.254,0,0.004673
0.006,0.7643,0.9174,0.999703,0.06306,1.254,0,0.004673
0.007,0.7506,0.9124,0.999655,0.06306,1.254,0,0.004673
0.008,0.7382,0.9078,0.999608,0.06306,1.254,0,0.004673
0.009,0.7271,0.9037,0.999561,0.06306,1.254,0,0.004673
0.010,0.7169,0.8999,0.999514,0.06306,1.254,0,0.004673
0.020,0.6450,0.8729,0.999057,0.06306,1.254,0,0.004673
0.030,0.6001,0.8557,0.998614,0.06306,1.254,0,0.004673
0.040,0.5675,0.8432,0.998179,0.06306,1.254,0,0.004673
0.050,0.5420,0.8333,0.997751,0.06306,1.254,0,0.004673
0.060,0.5212,0.8252,0.997328,0.06306,1.254,0,0.004673
0.070,0.5036,0.8183,0.996909,0.06306,1.254,0,0.004673
0.080,0.4884,0.8124,0.996494,0.06306,1.254,0,0.004673
0.090,0.4751,0.8072,0.996082,0.06306,1.254,0,0.004673
0.100,0.4633,0.8025,0.995672,0.06306,1.254,0,0.004673
0.200,0.3877,0.7719,0.991691,0.06306,1.254,0,0.004673
0.300,0.3459,0.7540,0.987849,0.06306,1.254,0,0.004673
0.400,0.3177,0.7415,0.984099,0.06306,1.254,0,0.004673
0.500,0.2967,0.7320,0.980414,0.06306,1.254,0,0.004673
0.600,0.2803,0.7247,0.976773,0.06306,1.254,0,0.004673
0.700,0.2671,0.7192,0.973159,0.06306,1.254,0,0.004673
0.800,0.2561,0.7151,0.969555,0.06306,1.254,0,0.004673
0.900,0.2470,0.7123,0.965946,0.06306,1.254,0,0.004673
1.000,0.2392,0.7107,0.962320,0.06306,1.254,0,0.004673
1.250,0.2243,0.7110,0.953104,0.06306,1.254,0,0.004673
1.500,0.2141,0.7166,0.943557,0.06306,1.254,0,0.004673
1.750,0.2072,0.7269,0.933561,0.06306,1.254,0,0.004673
2.000,0.2028,0.7410,0.923024,0.06306,1.254,0,0.004673
2.250,0.2004,0.7586,0.911877,0.06306,1.254,0,0.004673
2.500,0.1996,0.7793,0.900057,0.06306,1.254,0,0.004673
2.750,0.2004,0.8030,0.887505,0.06306,1.254,0,0.004673
3.000,0.2025,0.8295,0.874158,0.06306,1.254,0,0.004673
3.250,0.2060,0.8590,0.859942,0.06306,1.254,0,0.004673
3.500,0.2109,0.8918,0.844763,0.06306,1.254,0,0.004673
3.750,0.2173,0.9282,0.828510,0.06306,1.254,0,0.004673
4.000,0.2256,0.9688,0.811045,0.06306,1.254,0,0.004673
4.052,0.2275,0.9778,0.807238,0.06306,1.254,0,0.004673
,,,,,,,
Sodium Thionate,,,,,,,
m (mol/kg),gamma,Osmotic,a_water,,,,
0.001,0.8887,0.9624,0.999948,,,,
0.002,0.8509,0.9494,0.999897,,,,
0.003,0.8245,0.9402,0.999848,,,,
0.004,0.8038,0.9330,0.999798,,,,
0.005,0.7866,0.9269,0.999750,,,,
0.006,0.7718,0.9217,0.999701,,,,
0.007,0.7588,0.9171,0.999653,,,,
0.008,0.7471,0.9130,0.999605,,,,
0.009,0.7366,0.9093,0.999558,,,,
0.010,0.7269,0.9058,0.999511,,,,
0.020,0.6590,0.8812,0.999048,,,,
0.030,0.6161,0.8663,0.998598,,,,
0.040,0.5845,0.8532,0.998157,,,,
0.050,0.5596,0.8434,0.997723,,,,
0.060,0.5390,0.8352,0.997295,,,,
0.070,0.5214,0.8279,0.996873,,,,
0.080,0.5061,0.8215,0.996454,,,,
0.090,0.4925,0.8158,0.996040,,,,
0.100,0.4804,0.8105,0.995629,,,,
0.200,0.4019,0.7756,0.991652,,,,
0.300,0.3589,0.7574,0.987795,,,,
0.400,0.3309,0.7472,0.983976,,,,
0.500,0.3105,0.7410,0.980176,,,,
0.600,0.2947,0.7364,0.976405,,,,
0.700,0.2818,0.7326,0.972664,,,,
0.800,0.2713,0.7302,0.968921,,,,
0.852,0.2666,0.7300,0.966943,,,,
,,,,,,,
Sodium Persulfate,,,,,,,
m (mol/kg),gamma,Osmotic,a_water,,,,
0.001,0.8867,0.9613,0.999948,,,,
0.002,0.8476,0.9475,0.999898,,,,
0.003,0.8200,0.9377,0.999848,,,,
0.004,0.7984,0.9300,0.999799,,,,
0.005,0.7803,0.9235,0.999750,,,,
0.006,0.7648,0.9179,0.999702,,,,
0.007,0.7512,0.9129,0.999655,,,,
0.008,0.7390,0.9085,0.999607,,,,
0.009,0.7280,0.9045,0.999560,,,,
0.010,0.7179,0.9008,0.999513,,,,
0.020,0.6478,0.8755,0.999054,,,,
0.030,0.6048,0.8603,0.998606,,,,
0.040,0.5741,0.8499,0.998164,,,,
0.050,0.5505,0.8423,0.997726,,,,
0.060,0.5315,0.8366,0.997291,,,,
0.070,0.5158,0.8321,0.996857,,,,
0.080,0.5025,0.8286,0.996424,,,,
0.090,0.4911,0.8259,0.995991,,,,
0.098,0.4829,0.8241,0.995645,,,,
,,,,,,,
Sodium Phosphate (Na2HPO4),,,,,,,
m (mol/kg),gamma,Osmotic,a_water,-0.02266,1.249,0,0.00752
0.001,0.8868,0.9613,0.999948,-0.02266,1.249,0,0.00752
0.002,0.8476,0.9475,0.999898,-0.02266,1.249,0,0.00752
0.003,0.8200,0.9370,0.999848,-0.02266,1.249,0,0.00752
0.004,0.7982,0.9297,0.999799,-0.02266,1.249,0,0.00752
0.005,0.7800,0.9231,0.999751,-0.02266,1.249,0,0.00752
0.006,0.7643,0.9174,0.999703,-0.02266,1.249,0,0.00752
0.007,0.7505,0.9123,0.999655,-0.02266,1.249,0,0.00752
0.008,0.7382,0.9077,0.999608,-0.02266,1.249,0,0.00752
0.009,0.7270,0.9035,0.999561,-0.02266,1.249,0,0.00752
0.010,0.7167,0.8997,0.999514,-0.02266,1.249,0,0.00752
0.020,0.6442,0.8720,0.999058,-0.02266,1.249,0,0.00752
0.030,0.5986,0.8540,0.998616,-0.02266,1.249,0,0.00752
0.040,0.5652,0.8405,0.998185,-0.02266,1.249,0,0.00752
0.050,0.5389,0.8297,0.997760,-0.02266,1.249,0,0.00752
0.060,0.5172,0.8205,0.997343,-0.02266,1.249,0,0.00752
0.070,0.4988,0.8126,0.996931,-0.02266,1.249,0,0.00752
0.080,0.4829,0.8055,0.996523,-0.02266,1.249,0,0.00752
